# SAXS profile: number of points = 501, q_min = 0, q_max = 0.5, delta_q = 0.001
#    q    intensity    error
0.00000    4792995.00000000 1006.52893066
0.00100    4792478.50000000 1581.51794434
0.00200    4790919.00000000 2371.50488281
0.00300    4788257.50000000 3447.54541016
0.00400    4784611.00000000 4306.14990234
0.00500    4779895.00000000 5162.28710938
0.00600    4774159.00000000 5012.86718750
0.00700    4767388.00000000 5720.86572266
0.00800    4759584.00000000 7710.52636719
0.00900    4750738.50000000 9263.94042969
0.01000    4740851.50000000 9386.88671875
0.01100    4729976.50000000 9365.35449219
0.01200    4718099.50000000 13800.44140625
0.01300    4705199.00000000 14821.37695312
0.01400    4691324.50000000 13722.12500000
0.01500    4676478.00000000 15712.96679688
0.01600    4660647.00000000 13073.11523438
0.01700    4643842.00000000 13792.21191406
0.01800    4626116.50000000 15821.31933594
0.01900    4607427.50000000 13822.28320312
0.02000    4587843.00000000 26013.07226562
0.02100    4567291.00000000 21100.88671875
0.02200    4545869.00000000 15683.24902344
0.02300    4523535.00000000 21170.14453125
0.02400    4500322.50000000 21939.07226562
0.02500    4476247.00000000 24440.30859375
0.02600    4451329.50000000 25239.03906250
0.02700    4425581.50000000 24163.67578125
0.02800    4399006.00000000 21049.24414062
0.02900    4371664.50000000 23606.98828125
0.03000    4343525.00000000 22217.13085938
0.03100    4314619.00000000 28994.24023438
0.03200    4284958.50000000 23331.59960938
0.03300    4254567.00000000 23868.12109375
0.03400    4223450.50000000 22173.11718750
0.03500    4191666.50000000 22635.00000000
0.03600    4159197.50000000 25391.90234375
0.03700    4126089.75000000 25870.58398438
0.03800    4092336.50000000 28728.20312500
0.03900    4057973.25000000 29217.40820312
0.04000    4023008.50000000 39586.40625000
0.04100    3987454.50000000 30145.15625000
0.04200    3951361.75000000 25486.28515625
0.04300    3914744.75000000 25837.31640625
0.04400    3877590.50000000 31408.48632812
0.04500    3839959.75000000 34444.44140625
0.04600    3801863.25000000 40204.70703125
0.04700    3763313.25000000 35224.61328125
0.04800    3724333.75000000 32848.62500000
0.04900    3684942.50000000 27637.07031250
0.05000    3645179.75000000 41828.43750000
0.05100    3605041.00000000 50614.77734375
0.05200    3564562.25000000 28338.26953125
0.05300    3523766.75000000 28542.51171875
0.05400    3482676.75000000 31605.29296875
0.05500    3441306.25000000 40469.76562500
0.05600    3399674.00000000 31973.93554688
0.05700    3357814.50000000 35055.58593750
0.05800    3315732.25000000 44016.34765625
0.05900    3273468.75000000 35353.46484375
0.06000    3231029.00000000 35476.69921875
0.06100    3188429.25000000 44478.58984375
0.06200    3145717.50000000 47563.25000000
0.06300    3102887.00000000 29787.71484375
0.06400    3059967.00000000 29834.67968750
0.06500    3016987.75000000 38828.63671875
0.06600    2973951.25000000 32877.03125000
0.06700    2930880.25000000 35873.97656250
0.06800    2887810.25000000 38855.48828125
0.06900    2844750.75000000 53765.79296875
0.07000    2801720.75000000 32822.16015625
0.07100    2758734.00000000 32773.76171875
0.07200    2715811.00000000 29738.13281250
0.07300    2672980.00000000 38571.10546875
0.07400    2630248.50000000 47344.47265625
0.07500    2587636.50000000 47198.49218750
0.07600    2545169.00000000 38215.71484375
0.07700    2502831.75000000 49781.32812500
0.07800    2460675.50000000 32074.90625000
0.07900    2418696.50000000 31926.79492188
0.08000    2376936.25000000 31767.75585938
0.08100    2335382.75000000 43087.81250000
0.08200    2294068.75000000 34273.38671875
0.08300    2252982.50000000 53936.40234375
0.08400    2212161.25000000 33846.07031250
0.08500    2171612.75000000 28013.80468750
0.08600    2131364.75000000 38940.03515625
0.08700    2091385.87500000 30366.92382812
0.08800    2051728.87500000 27390.58203125
0.08900    2012407.12500000 32600.99609375
0.09000    1973407.75000000 40405.52343750
0.09100    1934757.25000000 26699.65234375
0.09200    1896474.12500000 31746.97851562
0.09300    1858552.12500000 31446.70312500
0.09400    1820993.62500000 31138.99218750
0.09500    1783835.87500000 38530.85546875
0.09600    1747068.50000000 35587.78515625
0.09700    1710703.00000000 32691.53515625
0.09800    1674749.12500000 24870.02539062
0.09900    1639214.00000000 39341.14062500
0.10000    1604101.87500000 26732.35742188
0.10100    1569425.75000000 36018.32031250
0.10200    1535194.00000000 42693.74609375
0.10300    1501388.75000000 32790.33203125
0.10400    1468042.87500000 25433.84375000
0.10500    1435160.50000000 27382.86328125
0.10600    1402717.12500000 36021.77734375
0.10700    1370746.50000000 35529.75390625
0.10800    1339248.37500000 26276.05468750
0.10900    1308215.25000000 28061.21875000
0.11000    1277660.37500000 27654.96093750
0.11100    1247577.62500000 20959.30664062
0.11200    1217970.00000000 24773.50976562
0.11300    1188850.87500000 22362.28515625
0.11400    1160204.25000000 26017.58203125
0.11500    1132051.50000000 21667.46679688
0.11600    1104382.50000000 23258.29687500
0.11700    1077188.25000000 20972.85546875
0.11800    1050478.12500000 20626.13867188
0.11900    1024258.37500000 20280.31640625
0.12000    998514.50000000 21747.64648438
0.12100    973263.87500000 19591.80273438
0.12200    948482.18750000 24499.29687500
0.12300    924182.25000000 27503.66406250
0.12400    900364.25000000 21946.37890625
0.12500    877018.25000000 21548.33789062
0.12600    854151.37500000 22780.21679688
0.12700    831749.81250000 17566.55664062
0.12800    809818.00000000 18803.97460938
0.12900    788348.50000000 15372.79687500
0.13000    767343.43750000 19601.78906250
0.13100    746798.31250000 16265.26855469
0.13200    726704.43750000 18847.08007812
0.13300    707060.87500000 18475.50000000
0.13400    687861.81250000 13929.20214844
0.13500    669106.06250000 20474.64648438
0.13600    650787.50000000 20060.52539062
0.13700    632898.06250000 15721.18847656
0.13800    615439.56250000 12831.91601562
0.13900    598403.37500000 23876.29687500
0.14000    581781.68750000 14765.61914062
0.14100    565571.31250000 14456.00292969
0.14200    549767.75000000 18868.02929688
0.14300    534366.62500000 13850.78320312
0.14400    519358.75000000 12425.65917969
0.14500    504740.03125000 12159.18847656
0.14600    490506.87500000 17305.08398438
0.14700    476650.56250000 11639.80664062
0.14800    463161.84375000 16562.66796875
0.14900    450042.53125000 13163.74414062
0.15000    437280.34375000 11885.28027344
0.15100    424871.56250000 12593.19335938
0.15200    412808.59375000 11368.74902344
0.15300    401087.71875000 13897.69042969
0.15400    389695.53125000 14496.67480469
0.15500    378635.53125000 9746.07910156
0.15600    367894.75000000 10396.70605469
0.15700    357470.71875000 11860.87890625
0.15800    347350.90625000 8284.31933594
0.15900    337534.65625000 8910.91503906
0.16000    328013.50000000 9505.83203125
0.16100    318784.28125000 10070.39648438
0.16200    309831.50000000 9847.99414062
0.16300    301159.68750000 8149.38134766
0.16400    292758.03125000 7245.76123047
0.16500    284618.31250000 9921.79492188
0.16600    276736.68750000 6932.25439453
0.16700    269106.90625000 14241.13867188
0.16800    261718.09375000 9951.83105469
0.16900    254571.48437500 8439.04589844
0.17000    247657.71875000 7622.90478516
0.17100    240972.09375000 8082.20410156
0.17200    234503.98437500 7910.99218750
0.17300    228252.75000000 8936.09570312
0.17400    222212.39062500 5833.07568359
0.17500    216373.28125000 7425.93164062
0.17600    210730.96875000 7273.37988281
0.17700    205282.51562500 6577.25195312
0.17800    200020.01562500 5907.59130859
0.17900    194941.14062500 7368.77539062
0.18000    190036.59375000 5675.44287109
0.18100    185305.34375000 7588.25439453
0.18200    180736.42187500 4961.21484375
0.18300    176330.14062500 6326.72607422
0.18400    172079.09375000 8117.83203125
0.18500    167980.12500000 7498.63281250
0.18600    164025.25000000 5060.99902344
0.18700    160213.14062500 5873.41406250
0.18800    156536.76562500 4437.81738281
0.18900    152995.85937500 4796.42041016
0.19000    149577.62500000 5142.47900391
0.19100    146289.54687500 6319.70898438
0.19200    143115.40625000 6214.78662109
0.19300    140061.43750000 4483.36669922
0.19400    137114.93750000 4010.61206055
0.19500    134278.29687500 3947.78198242
0.19600    131544.92187500 5053.29833984
0.19700    128912.02343750 4211.55615234
0.19800    126375.17187500 3772.29907227
0.19900    123932.12500000 4461.55664062
0.20000    121577.00000000 4032.10131836
0.20100    119310.25000000 3976.61083984
0.20200    117125.34375000 4279.76025391
0.20300    115021.25000000 4223.58056641
0.20400    112994.47656250 3822.03833008
0.20500    111041.63281250 3431.18676758
0.20600    109158.56250000 5084.06054688
0.20700    107345.21875000 5693.59082031
0.20800    105596.82812500 4303.59863281
0.20900    103915.10156250 3273.32568359
0.21000    102290.14843750 4532.47656250
0.21100    100725.91406250 3523.39257812
0.21200    99216.49218750  3803.96044922
0.21300    97760.25000000  4393.34570312
0.21400    96357.04687500  4039.76953125
0.21500    95003.79687500  3385.93530273
0.21600    93697.67187500  4269.80322266
0.21700    92436.92187500  3929.49365234
0.21800    91219.54687500  3595.87475586
0.21900    90043.50781250  3268.57958984
0.22000    88908.31250000  2947.31079102
0.22100    87813.23437500  3509.01708984
0.22200    86754.46093750  3482.32421875
0.22300    85730.30468750  2880.53833008
0.22400    84739.76562500  4003.95410156
0.22500    83784.61718750  3408.35839844
0.22600    82857.90625000  3385.57421875
0.22700    81963.29687500  3363.77392578
0.22800    81096.31250000  3064.22436523
0.22900    80257.19531250  3045.76074219
0.23000    79444.57031250  3578.58081055
0.23100    78658.37500000  3558.50488281
0.23200    77894.31250000  2994.64697266
0.23300    77155.42187500  4333.04882812
0.23400    76439.42968750  2963.93896484
0.23500    75741.96875000  2681.26586914
0.23600    75068.27343750  3202.41284180
0.23700    74413.74218750  4516.17041016
0.23800    73778.20312500  3702.92797852
0.23900    73160.78125000  3950.68237305
0.24000    72560.64843750  2885.37426758
0.24100    71978.70312500  3135.39257812
0.24200    71413.70312500  3123.63549805
0.24300    70863.53906250  3631.04809570
0.24400    70328.43750000  3876.85546875
0.24500    69808.01562500  2833.50732422
0.24600    69302.00000000  3081.16699219
0.24700    68809.99218750  2815.70507812
0.24800    68331.03906250  2807.38085938
0.24900    67863.98437500  3053.87939453
0.25000    67409.89843750  2791.78100586
0.25100    66967.00000000  4050.16455078
0.25200    66537.50000000  3030.11791992
0.25300    66117.33593750  3778.60595703
0.25400    65709.19531250  2764.71459961
0.25500    65310.62500000  2758.72119141
0.25600    64923.33984375  3754.19238281
0.25700    64543.82421875  2997.41528320
0.25800    64175.31250000  3241.17431641
0.25900    63815.87500000  2737.70117188
0.26000    63465.61718750  2981.61499023
0.26100    63122.65625000  2480.72045898
0.26200    62790.39453125  2972.49755859
0.26300    62463.46093750  2720.90844727
0.26400    62146.41015625  2964.38378906
0.26500    61836.26953125  3947.62768555
0.26600    61533.65625000  2464.42285156
0.26700    61239.19531250  2461.81591797
0.26800    60951.80078125  2459.40527344
0.26900    60670.01953125  2457.13598633
0.27000    60396.03515625  2946.11865234
0.27100    60127.53906250  2943.84472656
0.27200    59867.57421875  3677.36596680
0.27300    59611.92578125  2450.05004883
0.27400    59360.40625000  3428.06372070
0.27500    59117.78125000  2447.47631836
0.27600    58877.92968750  3424.92944336
0.27700    58645.65625000  2445.52392578
0.27800    58417.02734375  2689.22802734
0.27900    58194.42968750  2932.99951172
0.28000    57976.35546875  2932.44409180
0.28100    57762.07421875  2932.00317383
0.28200    57553.36328125  3176.08251953
0.28300    57349.19140625  3664.61352539
0.28400    57148.19531250  3176.01098633
0.28500    56952.47656250  2931.91381836
0.28600    56759.02734375  2687.82397461
0.28700    56569.61328125  2443.80737305
0.28800    56384.09765625  2688.67578125
0.28900    56202.25000000  3911.67675781
0.29000    56022.69140625  2689.92968750
0.29100    55847.36328125  2446.11450195
0.29200    55674.55468750  2691.58666992
0.29300    55504.49609375  3182.07299805
0.29400    55335.87109375  2448.61230469
0.29500    55171.14062500  2939.51855469
0.29600    55007.85546875  3185.78002930
0.29700    54846.13671875  2451.62255859
0.29800    54687.50781250  2698.00830078
0.29900    54530.35546875  2453.86621094
0.30000    54374.66015625  2700.51757812
0.30100    54220.92187500  3193.07031250
0.30200    54067.64843750  3194.58715820
0.30300    53916.53515625  4179.60986328
0.30400    53767.01953125  3689.76196289
0.30500    53616.96875000  2707.12084961
0.30600    53467.78515625  3200.84912109
0.30700    53320.73828125  2463.41821289
0.30800    53173.45703125  3203.96704102
0.30900    53026.98437500  2712.33032227
0.31000    52880.09375000  4440.34130859
0.31100    52733.88671875  3208.32983398
0.31200    52587.58593750  2468.98730469
0.31300    52441.50390625  2469.99511719
0.31400    52295.70703125  2965.16674805
0.31500    52148.82031250  2719.03979492
0.31600    52002.18750000  2472.70410156
0.31700    51855.10546875  2720.83740234
0.31800    51706.80468750  2474.17065430
0.31900    51559.91796875  2722.36376953
0.32000    51410.73437500  3713.14062500
0.32100    51260.89453125  4209.03222656
0.32200    51111.15625000  3714.50366211
0.32300    50959.52734375  4457.93945312
0.32400    50807.37500000  2476.85961914
0.32500    50654.04687500  2972.37963867
0.32600    50499.48046875  2476.99951172
0.32700    50344.12109375  3963.08935547
0.32800    50188.00000000  2724.45556641
0.32900    50029.86718750  2724.12646484
0.33000    49871.67968750  3218.96777344
0.33100    49710.31250000  3465.80322266
0.33200    49549.91015625  3465.02539062
0.33300    49386.75781250  2969.13183594
0.33400    49223.10937500  3215.49975586
0.33500    49057.12109375  3214.22265625
0.33600    48890.60156250  3212.84619141
0.33700    48722.15625000  2470.21337891
0.33800    48552.92578125  3456.48315430
0.33900    48381.85156250  2714.22192383
0.34000    48209.21875000  3452.26220703
0.34100    48035.47656250  3203.48608398
0.34200    47861.51171875  3447.46484375
0.34300    47684.90234375  2460.54101562
0.34400    47508.14843750  2704.40136719
0.34500    47329.79296875  2456.41650391
0.34600    47150.75000000  3435.87524414
0.34700    46969.42187500  3677.70581055
0.34800    46787.82421875  3184.14550781
0.34900    46605.26953125  2446.77661133
0.35000    46421.21093750  2688.48461914
0.35100    46237.11328125  2441.31958008
0.35200    46051.00390625  3413.76123047
0.35300    45864.96875000  2678.97290039
0.35400    45677.27734375  2675.54663086
0.35500    45489.77734375  2672.06958008
0.35600    45301.20312500  2668.46752930
0.35700    45112.13281250  3633.78247070
0.35800    44922.69921875  2902.90478516
0.35900    44733.27734375  2898.71655273
0.36000    44543.32031250  2894.42504883
0.36100    44353.31640625  2890.06225586
0.36200    44163.40625000  2404.69750977
0.36300    43973.18359375  2881.12304688
0.36400    43782.59375000  2876.51660156
0.36500    43591.73046875  2632.50463867
0.36600    43402.33203125  3583.94775391
0.36700    43212.31640625  2862.38403320
0.36800    43023.88671875  3333.92114258
0.36900    42835.89062500  2852.87036133
0.37000    42647.10156250  2847.97338867
0.37100    42459.03515625  2606.13574219
0.37200    42273.09765625  3074.73388672
0.37300    42087.10937500  3069.41308594
0.37400    41902.92578125  3299.85546875
0.37500    41719.72656250  3294.18994141
0.37600    41537.30859375  3288.50878906
0.37700    41356.02343750  2579.37524414
0.37800    41176.69140625  3979.52148438
0.37900    40999.08593750  2570.64282227
0.38000    40822.41015625  2799.60107422
0.38100    40647.58593750  2794.92797852
0.38200    40474.14062500  3022.81152344
0.38300    40302.69140625  2553.57861328
0.38400    40133.73828125  3244.81274414
0.38500    39966.03906250  3702.45410156
0.38600    39801.55859375  3003.62475586
0.38700    39637.85937500  3229.69287109
0.38800    39476.72265625  3224.85351562
0.38900    39318.38671875  2530.13842773
0.39000    39162.56250000  2296.88427734
0.39100    39009.38671875  2981.87768555
0.39200    38859.03906250  2748.88867188
0.39300    38710.08203125  3202.87231445
0.39400    38565.71093750  2513.52026367
0.39500    38422.95703125  2738.78833008
0.39600    38282.67187500  2279.73315430
0.39700    38146.12500000  2732.78857422
0.39800    38012.52734375  2730.05981445
0.39900    37881.97656250  2954.79418945
0.40000    37754.61328125  2725.12792969
0.40100    37629.36718750  2949.76635742
0.40200    37509.31640625  2494.18212891
0.40300    37390.97265625  2719.07177734
0.40400    37276.35156250  2717.44604492
0.40500    37165.22656250  2263.36254883
0.40600    37058.41406250  3167.38281250
0.40700    36953.77734375  3392.35668945
0.40800    36853.30468750  3165.33056641
0.40900    36755.52343750  4294.88281250
0.41000    36662.79296875  2712.31347656
0.41100    36572.68359375  2712.23022461
0.41200    36485.90625000  2712.36254883
0.41300    36403.71093750  2712.80468750
0.41400    36324.85156250  2939.58886719
0.41500    36249.87500000  2488.19165039
0.41600    36177.65234375  2262.91210938
0.41700    36110.05468750  2943.33081055
0.41800    36047.00390625  2945.22045898
0.41900    35985.21093750  3400.60278320
0.42000    35929.26953125  2495.82690430
0.42100    35876.46875000  2498.07861328
0.42200    35827.99218750  2273.28613281
0.42300    35782.31250000  3413.63256836
0.42400    35740.65234375  2506.31347656
0.42500    35703.03515625  2737.70874023
0.42600    35668.81250000  3655.34008789
0.42700    35638.92968750  2745.62329102
0.42800    35612.08593750  2291.63793945
0.42900    35589.68359375  2525.08813477
0.43000    35570.68750000  3219.50292969
0.43100    35554.51562500  2995.11254883
0.43200    35542.70312500  3001.04809570
0.43300    35534.34765625  3007.27197266
0.43400    35529.60546875  3245.62963867
0.43500    35528.24609375  2788.25708008
0.43600    35531.88281250  2329.11499023
0.43700    35536.92578125  2568.25366211
0.43800    35545.53515625  2574.74096680
0.43900    35558.54687500  2816.23706055
0.44000    35574.58984375  2588.58520508
0.44100    35594.23046875  3067.86694336
0.44200    35617.18750000  2366.76220703
0.44300    35643.03515625  2848.59155273
0.44400    35672.55468750  3095.48608398
0.44500    35703.59765625  3582.85620117
0.44600    35738.81640625  2875.54516602
0.44700    35777.45703125  3606.36791992
0.44800    35818.59375000  2412.38232422
0.44900    35863.05078125  2904.90722656
0.45000    35910.81250000  3644.04980469
0.45100    35959.68359375  2925.68017578
0.45200    36012.80078125  3915.31201172
0.45300    36067.94921875  3684.34106445
0.45400    36125.85937500  3698.38500977
0.45500    36186.28125000  4207.74072266
0.45600    36249.29687500  3975.82324219
0.45700    36314.56250000  3243.25366211
0.45800    36382.18750000  2755.40527344
0.45900    36451.77343750  3018.20703125
0.46000    36525.20312500  3283.43310547
0.46100    36598.35156250  3550.77221680
0.46200    36675.28906250  2801.80883789
0.46300    36753.39062500  3069.64331055
0.46400    36833.89062500  3596.82958984
0.46500    36915.97656250  2580.42700195
0.46600    37000.16796875  3110.23437500
0.46700    37085.11328125  3124.05004883
0.46800    37173.10937500  4184.20556641
0.46900    37261.13671875  3414.98315430
0.47000    37351.34375000  2902.75976562
0.47100    37443.08593750  3181.16479492
0.47200    37535.98828125  3994.76782227
0.47300    37630.11328125  3210.60131836
0.47400    37725.00000000  3225.48779297
0.47500    37821.27734375  3240.52709961
0.47600    37919.25781250  4612.30908203
0.47700    38016.38671875  3816.08520508
