# SAXS profile: number of points = 501, q_min = 0, q_max = 0.5, delta_q = 0.001
#    q    intensity    error
0.00000    4793023.00000000 1006.53485107
0.00100    4792479.50000000 1581.51831055
0.00200    4790907.50000000 2371.49926758
0.00300    4788217.50000000 3447.51660156
0.00400    4784532.00000000 4306.07910156
0.00500    4779766.00000000 5162.14746094
0.00600    4773972.50000000 5012.67138672
0.00700    4767120.00000000 5720.54394531
0.00800    4759242.00000000 7709.97216797
0.00900    4750316.50000000 9263.11816406
0.01000    4740298.50000000 9385.79199219
0.01100    4729335.00000000 9364.08398438
0.01200    4717299.50000000 13798.10156250
0.01300    4704295.00000000 14818.52929688
0.01400    4690284.50000000 13719.08300781
0.01500    4675301.00000000 15709.01171875
0.01600    4659313.00000000 13069.37402344
0.01700    4642366.50000000 13787.82910156
0.01800    4624480.00000000 15815.72265625
0.01900    4605621.50000000 13816.86523438
0.02000    4585862.50000000 26001.84179688
0.02100    4565160.00000000 21091.04101562
0.02200    4543536.00000000 15675.20019531
0.02300    4521030.50000000 21158.42382812
0.02400    4497659.00000000 21926.08789062
0.02500    4473392.00000000 24424.72070312
0.02600    4448303.00000000 25221.87890625
0.02700    4422376.50000000 24146.17578125
0.02800    4395652.00000000 21033.19531250
0.02900    4368133.00000000 23587.91992188
0.03000    4339810.00000000 22198.12890625
0.03100    4310750.50000000 28968.24414062
0.03200    4280951.50000000 23309.78125000
0.03300    4250420.00000000 23844.85546875
0.03400    4219197.00000000 22150.78515625
0.03500    4187286.50000000 22611.34765625
0.03600    4154716.75000000 25364.54687500
0.03700    4121487.75000000 25841.72851562
0.03800    4087642.00000000 28695.24804688
0.03900    4053196.50000000 29183.01562500
0.04000    4018169.75000000 39538.79296875
0.04100    3982571.25000000 30108.24023438
0.04200    3946453.25000000 25454.62500000
0.04300    3909803.50000000 25804.70312500
0.04400    3872664.25000000 31368.58203125
0.04500    3835046.25000000 34400.36718750
0.04600    3796974.00000000 40153.00390625
0.04700    3758482.75000000 35179.39843750
0.04800    3719575.50000000 32806.65625000
0.04900    3680283.75000000 27602.12890625
0.05000    3640626.25000000 41776.18750000
0.05100    3600639.50000000 50552.98046875
0.05200    3560302.75000000 28304.40820312
0.05300    3519683.25000000 28509.43554688
0.05400    3478796.25000000 31570.07617188
0.05500    3437641.25000000 40426.66406250
0.05600    3396253.00000000 31941.75976562
0.05700    3354666.50000000 35022.71875000
0.05800    3312866.50000000 43978.30468750
0.05900    3270925.50000000 35325.99609375
0.06000    3228818.50000000 35452.42968750
0.06100    3186590.25000000 44452.93750000
0.06200    3144263.50000000 47541.26562500
0.06300    3101842.75000000 29777.69140625
0.06400    3059360.50000000 29828.76562500
0.06500    3016824.75000000 38826.53906250
0.06600    2974262.75000000 32880.47265625
0.06700    2931705.00000000 35884.07031250
0.06800    2889164.75000000 38873.71484375
0.06900    2846643.50000000 53801.56640625
0.07000    2804174.25000000 32850.90234375
0.07100    2761788.00000000 32810.04296875
0.07200    2719472.75000000 29778.22851562
0.07300    2677271.75000000 38633.03515625
0.07400    2635177.75000000 47433.19921875
0.07500    2593236.50000000 47300.63671875
0.07600    2551449.25000000 38310.01171875
0.07700    2509819.75000000 49920.32031250
0.07800    2468369.50000000 32175.19726562
0.07900    2427142.25000000 32038.27929688
0.08000    2386114.00000000 31890.41601562
0.08100    2345330.50000000 43271.34765625
0.08200    2304785.75000000 34433.50000000
0.08300    2264488.50000000 54211.85937500
0.08400    2224465.25000000 34034.32031250
0.08500    2184743.00000000 28183.18554688
0.08600    2145287.00000000 39194.39453125
0.08700    2106155.00000000 30581.37304688
0.08800    2067335.37500000 27598.92968750
0.08900    2028841.00000000 32867.22656250
0.09000    1990696.50000000 40759.51171875
0.09100    1952899.25000000 26950.01171875
0.09200    1915458.75000000 32064.78125000
0.09300    1878384.75000000 31782.27148438
0.09400    1841685.75000000 31492.82812500
0.09500    1805371.75000000 38996.03125000
0.09600    1769448.00000000 36043.65625000
0.09700    1733929.37500000 33135.39062500
0.09800    1698817.75000000 25227.44531250
0.09900    1664114.62500000 39938.75390625
0.10000    1629831.25000000 27161.13867188
0.10100    1595960.75000000 36627.30078125
0.10200    1562529.12500000 43453.93750000
0.10300    1529531.12500000 33404.96093750
0.10400    1496969.37500000 25934.99414062
0.10500    1464849.12500000 27949.32226562
0.10600    1433162.00000000 36803.60156250
0.10700    1401938.12500000 36338.23828125
0.10800    1371159.62500000 26902.15234375
0.10900    1340834.25000000 28760.89648438
0.11000    1310966.25000000 28375.86718750
0.11100    1281556.12500000 21530.14453125
0.11200    1252595.75000000 25477.79882812
0.11300    1224091.87500000 23025.16992188
0.11400    1196051.75000000 26821.46289062
0.11500    1168476.12500000 22364.63281250
0.11600    1141357.12500000 24036.98242188
0.11700    1114693.00000000 21703.07421875
0.11800    1088485.37500000 21372.41210938
0.11900    1062739.87500000 21042.25000000
0.12000    1037451.25000000 22595.68945312
0.12100    1012612.18750000 20383.88476562
0.12200    988226.56250000 25525.89453125
0.12300    964290.81250000 28697.29492188
0.12400    940796.56250000 22931.91796875
0.12500    917752.43750000 22549.17773438
0.12600    895156.37500000 23873.82031250
0.12700    872990.00000000 18437.54882812
0.12800    851266.93750000 19766.41992188
0.12900    829976.00000000 16184.53320312
0.13000    809112.12500000 20668.77148438
0.13100    788665.68750000 17177.14062500
0.13200    768653.18750000 19935.01953125
0.13300    749055.87500000 19572.83007812
0.13400    729869.56250000 14779.85937500
0.13500    711093.06250000 21759.44921875
0.13600    692717.56250000 21353.01953125
0.13700    674742.12500000 16760.59570312
0.13800    657162.68750000 13701.84277344
0.13900    639973.37500000 25534.93945312
0.14000    623164.81250000 15815.92285156
0.14100    606744.81250000 15508.39746094
0.14200    590692.56250000 20272.57031250
0.14300    575008.75000000 14904.22753906
0.14400    559691.37500000 13390.61718750
0.14500    544731.12500000 13122.57421875
0.14600    530129.56250000 18702.97265625
0.14700    515874.87500000 12597.66406250
0.14800    501957.84375000 17950.01367188
0.14900    488380.62500000 14285.13378906
0.15000    475132.96875000 12914.11425781
0.15100    462213.68750000 13700.01464844
0.15200    449613.03125000 12382.34375000
0.15300    437327.34375000 15153.39355469
0.15400    425349.00000000 15822.98437500
0.15500    413677.43750000 10648.05761719
0.15600    402301.00000000 11369.02636719
0.15700    391220.28125000 12980.68945312
0.15800    380422.09375000 9073.06738281
0.15900    369906.62500000 9765.53515625
0.16000    359666.59375000 10423.13867188
0.16100    349699.84375000 11047.01855469
0.16200    339994.37500000 10806.72167969
0.16300    330549.96875000 8944.68261719
0.16400    321358.96875000 7953.63476562
0.16500    312417.65625000 10890.87988281
0.16600    303721.81250000 7608.23193359
0.16700    295260.12500000 15625.16699219
0.16800    287032.87500000 10914.42578125
0.16900    279035.03125000 9250.01171875
0.17000    271260.84375000 8349.40917969
0.17100    263703.25000000 8844.60742188
0.17200    256357.56250000 8648.22265625
0.17300    249222.50000000 9757.06152344
0.17400    242291.35937500 6360.14843750
0.17500    235557.64062500 8084.33886719
0.17600    229016.67187500 7904.51123047
0.17700    222669.87500000 7134.34277344
0.17800    216504.68750000 6394.46582031
0.17900    210522.60937500 7957.75488281
0.18000    204715.48437500 6113.82812500
0.18100    199084.34375000 8152.50439453
0.18200    193616.37500000 5314.77001953
0.18300    188313.81250000 6756.70019531
0.18400    183170.40625000 8641.06445312
0.18500    178184.15625000 7954.14062500
0.18600    173350.07812500 5348.71679688
0.18700    168662.90625000 6183.18212891
0.18800    164119.95312500 4652.80078125
0.18900    159720.29687500 5007.23144531
0.19000    155453.75000000 5344.50048828
0.19100    151325.15625000 6537.24707031
0.19200    147321.78125000 6397.44824219
0.19300    143450.65625000 4591.85546875
0.19400    139699.31250000 4086.20507812
0.19500    136068.67187500 4000.41918945
0.19600    132555.00000000 5092.10058594
0.19700    129156.49218750 4219.54296875
0.19800    125868.70312500 3757.18115234
0.19900    122690.20312500 4416.84765625
0.20000    119613.57812500 3966.98437500
0.20100    116640.96093750 3887.64331055
0.20200    113768.35156250 4157.09570312
0.20300    110992.91406250 4075.65991211
0.20400    108310.24218750 3663.59423828
0.20500    105720.93750000 3266.77709961
0.20600    103218.60156250 4807.40673828
0.20700    100803.97656250 5346.64355469
0.20800    98472.99218750  4013.26684570
0.20900    96226.41406250  3031.13208008
0.21000    94056.99218750  4167.66552734
0.21100    91966.22656250  3216.97875977
0.21200    89949.79687500  3448.67529297
0.21300    88006.84375000  3955.02783203
0.21400    86134.86718750  3611.20458984
0.21500    84333.83593750  3005.65795898
0.21600    82597.60937500  3763.97314453
0.21700    80927.93750000  3440.24682617
0.21800    79320.08593750  3126.79785156
0.21900    77773.50000000  2823.17822266
0.22000    76286.28906250  2528.89062500
0.22100    74859.17968750  2991.37304688
0.22200    73487.28906250  2949.78002930
0.22300    72169.46875000  2424.89428711
0.22400    70903.46093750  3350.18872070
0.22500    69691.59375000  2835.05419922
0.22600    68525.76562500  2799.96289062
0.22700    67411.88281250  2766.58374023
0.22800    66343.02343750  2506.77124023
0.22900    65318.32031250  2478.83032227
0.23000    64338.69140625  2898.13647461
0.23100    63402.22656250  2868.31689453
0.23200    62504.85937500  2402.99951172
0.23300    61648.69921875  3462.19116211
0.23400    60831.12109375  2358.72680664
0.23500    60047.80078125  2125.69238281
0.23600    59303.50000000  2529.88745117
0.23700    58592.84375000  3556.00000000
0.23800    57916.34765625  2906.82153320
0.23900    57270.94140625  3092.63085938
0.24000    56657.06640625  2252.96826172
0.24100    56074.88671875  2442.62207031
0.24200    55520.92187500  2428.48535156
0.24300    54994.76953125  2817.93212891
0.24400    54494.98437500  3004.03613281
0.24500    54021.60156250  2192.73681641
0.24600    53573.52734375  2381.87915039
0.24700    53149.17578125  2174.86425781
0.24800    52747.82812500  2167.14453125
0.24900    52367.46875000  2356.53613281
0.25000    52009.05859375  2153.95507812
0.25100    51670.16796875  3125.01196289
0.25200    51353.03906250  2338.61743164
0.25300    51052.14062500  2917.63012695
0.25400    50770.31250000  2136.16088867
0.25500    50504.19921875  2133.29760742
0.25600    50254.82031250  2905.98510742
0.25700    50020.25000000  2322.94042969
0.25800    49799.88671875  2515.14355469
0.25900    49594.10546875  2127.58715820
0.26000    49400.95312500  2320.85693359
0.26100    49219.59375000  1934.33007812
0.26200    49051.61718750  2322.10375977
0.26300    48891.96875000  2129.73413086
0.26400    48743.79687500  2325.07910156
0.26500    48605.34765625  3102.96557617
0.26600    48475.31640625  1941.43640137
0.26700    48354.57812500  1943.85412598
0.26800    48241.69140625  1946.55224609
0.26900    48135.36328125  1949.48242188
0.27000    48035.92968750  2343.19262695
0.27100    47942.18359375  2347.24951172
0.27200    47856.17187500  2939.56542969
0.27300    47772.82421875  1963.46313477
0.27400    47692.49218750  2754.24169922
0.27500    47619.90625000  1971.46411133
0.27600    47547.95703125  2765.86499023
0.27700    47481.20703125  1979.96643066
0.27800    47416.26171875  2182.80786133
0.27900    47353.34375000  2386.60864258
0.28000    47292.84765625  2392.07226562
0.28100    47232.95703125  2397.54516602
0.28200    47175.12890625  2603.35961914
0.28300    47117.75781250  3010.82495117
0.28400    47060.88671875  2615.40893555
0.28500    47004.42578125  2419.78808594
0.28600    46946.64843750  2223.15869141
0.28700    46888.35156250  2025.57678223
0.28800    46830.38671875  2233.10717773
0.28900    46771.10546875  3255.26904297
0.29000    46709.65625000  2242.76440430
0.29100    46647.81250000  2043.17419434
0.29200    46584.30078125  2252.11816406
0.29300    46518.37890625  2666.89868164
0.29400    46449.40625000  2055.38623047
0.29500    46379.35546875  2471.09228516
0.29600    46306.66015625  2681.85034180
0.29700    46230.14062500  2066.48754883
0.29800    46152.30859375  2276.92431641
0.29900    46071.38671875  2073.21264648
0.30000    45986.84375000  2283.93676758
0.30100    45899.71875000  2703.03466797
0.30200    45809.07421875  2706.62939453
0.30300    45715.85937500  3543.89355469
0.30400    45619.61718750  3130.64648438
0.30500    45518.91015625  2298.24975586
0.30600    45414.81640625  2718.75830078
0.30700    45308.83593750  2093.26831055
0.30800    45198.45703125  2723.43334961
0.30900    45085.50781250  2306.12377930
0.31000    44968.41796875  3775.99804688
0.31100    44848.71484375  2728.59594727
0.31200    44725.21093750  2099.84863281
0.31300    44599.30859375  2100.62768555
0.31400    44470.14062500  2521.45703125
0.31500    44337.76562500  2311.77124023
0.31600    44202.32031250  2101.82031250
0.31700    44064.66015625  2312.07275391
0.31800    43923.11718750  2101.72119141
0.31900    43780.68750000  2311.62036133
0.32000    43634.40234375  3151.49487305
0.32100    43486.40625000  3570.66894531
0.32200    43336.73046875  3149.49707031
0.32300    43183.10156250  3777.65795898
0.32400    43028.61328125  2097.64501953
0.32500    42872.30468750  2515.74707031
0.32600    42713.66015625  2095.10498047
0.32700    42554.33203125  3349.87719727
0.32800    42393.79687500  2301.34741211
0.32900    42231.24609375  2299.49145508
0.33000    42068.51953125  2715.31274414
0.33100    41903.54687500  2921.51562500
0.33200    41739.43750000  2918.83911133
0.33300    41573.99609375  2499.42871094
0.33400    41408.77734375  2705.02856445
0.33500    41242.60937500  2702.21582031
0.33600    41076.57421875  2699.34716797
0.33700    40910.87500000  2074.18139648
0.33800    40745.73828125  2900.68945312
0.33900    40580.85546875  2276.58618164
0.34000    40416.33203125  2894.21362305
0.34100    40252.58203125  2684.44482422
0.34200    40091.14062500  2887.76489258
0.34300    39929.19140625  2060.34643555
0.34400    39770.33984375  2263.92675781
0.34500    39611.96093750  2055.86083984
0.34600    39455.94531250  2875.15478516
0.34700    39300.95703125  3077.26489258
0.34800    39147.83203125  2664.20581055
0.34900    38997.56640625  2047.37231445
0.35000    38848.91796875  2249.93530273
0.35100    38703.55078125  2043.54748535
0.35200    38559.06250000  2858.38354492
0.35300    38418.05859375  2243.99877930
0.35400    38279.50390625  2242.22192383
0.35500    38144.18359375  2240.58935547
0.35600    38010.91406250  2239.03295898
0.35700    37881.45703125  3051.35156250
0.35800    37754.91015625  2439.72241211
0.35900    37631.22656250  2438.50366211
0.36000    37511.84375000  2437.51977539
0.36100    37394.59375000  2436.63183594
0.36200    37281.67187500  2029.98718262
0.36300    37171.53125000  2435.47875977
0.36400    37064.53125000  2435.13989258
0.36500    36960.83984375  2232.06518555
0.36600    36861.42187500  3043.83203125
0.36700    36765.00390625  2435.31396484
0.36800    36673.00000000  2841.79101562
0.36900    36584.85156250  2436.55126953
0.37000    36498.62500000  2437.37817383
0.37100    36415.96875000  2235.21240234
0.37200    36338.11328125  2643.05273438
0.37300    36262.72656250  2644.64086914
0.37400    36192.00781250  2850.12060547
0.37500    36124.47656250  2852.38891602
0.37600    36059.71093750  2854.84741211
0.37700    35998.59765625  2245.23266602
0.37800    35941.17187500  3473.53466797
0.37900    35887.26171875  2250.13134766
0.38000    35835.71093750  2457.61328125
0.38100    35788.08984375  2460.78906250
0.38200    35742.84375000  2669.45458984
0.38300    35700.55468750  2261.98730469
0.38400    35661.88281250  2883.26318359
0.38500    35625.51562500  3300.34790039
0.38600    35592.80468750  2686.01098633
0.38700    35561.04296875  2897.51391602
0.38800    35532.78125000  2902.67309570
0.38900    35506.95312500  2284.87255859
0.39000    35483.75781250  2081.12255859
0.39100    35463.12500000  2710.80151367
0.39200    35444.62890625  2507.35327148
0.39300    35427.01562500  2931.23120117
0.39400    35413.35546875  2308.06567383
0.39500    35400.19140625  2523.32568359
0.39600    35388.48828125  2107.38452148
0.39700    35379.31250000  2534.57397461
0.39800    35371.36328125  2540.37158203
0.39900    35365.19140625  2758.48510742
0.40000    35359.98828125  2552.28393555
0.40100    35355.25390625  2771.49853516
0.40200    35353.26171875  2350.81518555
0.40300    35351.35546875  2570.75073242
0.40400    35350.28125000  2577.03564453
0.40500    35350.57421875  2152.85009766
0.40600    35351.94531250  3021.53100586
0.40700    35353.12500000  3245.41699219
0.40800    35355.10156250  3036.64990234
0.40900    35357.70703125  4131.54833984
0.41000    35361.67187500  2616.05664062
0.41100    35364.84375000  2622.65698242
0.41200    35368.33593750  2629.28222656
0.41300    35372.75781250  2635.97802734
0.41400    35377.00000000  2862.88403320
0.41500    35381.58984375  2428.59252930
0.41600    35385.15234375  2213.34130859
0.41700    35389.81250000  2884.62377930
0.41800    35395.12500000  2891.95874023
0.41900    35398.17187500  3345.12744141
0.42000    35402.83593750  2459.25805664
0.42100    35407.15234375  2465.40014648
0.42200    35411.26562500  2246.84497070
0.42300    35414.66796875  3378.55932617
0.42400    35417.87500000  2483.67871094
0.42500    35421.48828125  2716.11987305
0.42600    35424.25781250  3630.27807617
0.42700    35427.41406250  2729.32812500
0.42800    35430.01562500  2279.92163086
0.42900    35432.65234375  2513.94677734
0.43000    35435.02734375  3207.22436523
0.43100    35436.41796875  2985.16406250
0.43200    35438.46875000  2992.24707031
0.43300    35440.52343750  2999.33178711
0.43400    35442.19531250  3237.64477539
0.43500    35443.07812500  2781.57299805
0.43600    35446.21484375  2323.49951172
0.43700    35446.89062500  2561.74682617
0.43800    35448.18359375  2567.68920898
0.43900    35450.19140625  2807.65527344
0.44000    35452.14453125  2579.67553711
0.44100    35454.39843750  3055.81469727
0.44200    35456.98046875  2356.11645508
0.44300    35459.19531250  2833.89892578
0.44400    35462.87500000  3077.29125977
0.44500    35465.26953125  3558.93994141
0.44600    35469.12109375  2853.84545898
0.44700    35474.01171875  3575.78051758
0.44800    35478.81640625  2389.49829102
0.44900    35484.70703125  2874.26147461
0.45000    35491.80078125  3601.53051758
0.45100    35498.36718750  2888.14746094
0.45200    35506.60937500  3860.27880859
0.45300    35515.82812500  3627.94189453
0.45400    35525.67187500  3636.94091797
0.45500    35536.65625000  4132.20263672
0.45600    35548.72656250  3898.98461914
0.45700    35562.15625000  3176.05639648
0.45800    35576.42968750  2694.38110352
0.45900    35592.07812500  2947.02416992
0.46000    35610.13281250  3201.17285156
0.46100    35627.59375000  3456.58935547
0.46200    35647.86328125  2723.31860352
0.46300    35668.93750000  2979.06982422
0.46400    35691.98828125  3485.32275391
0.46500    35716.36718750  2496.57421875
0.46600    35742.59375000  3004.52246094
0.46700    35769.30468750  3013.20629883
0.46800    35799.46093750  4029.58764648
0.46900    35829.58593750  3283.78173828
0.47000    35862.00781250  2787.01611328
0.47100    35896.24218750  3049.74487305
0.47200    35932.32812500  3824.09838867
0.47300    35970.25000000  3068.98193359
0.47400    36009.02734375  3078.77197266
0.47500    36050.37890625  3088.79663086
0.47600    36093.94921875  4390.28759766
0.47700    36137.21484375  3627.45385742
